Position(m)	Shear_Force(N)
0	132923
0.1	132488
0.2	132053
0.3	131617
0.4	131341
0.5	131225
0.6	131109
0.7	130993
0.8	130877
0.9	130761
1	130645
1.1	130529
1.2	130413
1.3	130297
1.4	130181
1.5	130065
1.6	129949
1.7	129833
1.8	129717
1.9	129600
2	129484
2.1	129368
2.2	129252
2.3	129136
2.4	129020
2.5	128904
2.6	128788
2.7	128672
2.8	128556
2.9	128440
3	128324
3.1	128208
3.2	128092
3.3	127976
3.4	127859
3.5	127743
3.6	127627
3.7	127511
3.8	127395
3.9	127279
4	127163
4.1	127047
4.2	126931
4.3	126815
4.4	126699
4.5	126583
4.6	126467
4.7	126351
4.8	126235
4.9	126118
5	126002
5.1	125886
5.2	125770
5.3	125654
5.4	5315.96
5.5	5167.86
5.6	5019.77
5.7	4871.68
5.8	4723.59
5.9	4575.49
6	4427.4
6.1	4279.31
6.2	4131.22
6.3	3983.12
6.4	3835.03
6.5	3686.94
6.6	3538.84
6.7	3390.75
6.8	3242.66
6.9	3094.57
7	2946.47
7.1	2798.38
7.2	2650.29
7.3	2502.2
7.4	2354.1
7.5	2206.01
7.6	2057.92
7.7	1909.83
7.8	1761.73
7.9	1613.64
8	1465.55
8.1	1317.45
8.2	1169.36
8.3	1021.27
8.4	873.177
8.5	725.084
8.6	576.991
8.7	428.899
8.8	280.806
8.9	132.713
9	-15.3791
9.1	-163.472
9.2	-311.564
9.3	-459.657
9.4	-607.75
9.5	-755.842
9.6	-903.935
9.7	-1052.03
9.8	-1200.12
9.9	-1348.21
10	-1496.31
10.1	-1644.4
10.2	-1792.49
10.3	-1940.58
10.4	-2088.68
10.5	-2236.77
10.6	-2384.86
10.7	-2532.95
10.8	-2681.05
10.9	-2829.14
11	-2977.23
11.1	-3125.32
11.2	-3273.42
11.3	-3421.51
11.4	-3569.6
11.5	-3717.7
11.6	-3865.79
11.7	-4013.88
11.8	-4161.97
11.9	-4310.07
12	-4458.16
12.1	-4606.25
12.2	-4754.34
12.3	-4902.44
12.4	-5050.53
12.5	-5198.62
12.6	-5346.72
12.7	-5494.81
12.8	-5642.9
12.9	-5790.99
13	-5939.09
13.1	-6087.18
13.2	-6235.27
13.3	-6383.36
13.4	-6531.46
13.5	-6679.55
13.6	-6827.64
13.7	-6975.73
13.8	-7123.83
13.9	-7271.92
14	-7420.01
14.1	-7568.1
14.2	-7716.2
14.3	-7864.29
14.4	-8012.38
14.5	-8160.48
14.6	-8308.57
14.7	-8456.66
14.8	-8604.75
14.9	-8752.85
15	-8900.94
15.1	-9049.03
15.2	-9197.12
15.3	-9345.22
15.4	-9493.31
15.5	-9641.4
15.6	-9789.49
15.7	-9937.59
15.8	-10085.7
15.9	-10233.8
16	-10381.9
16.1	-10530
16.2	-10678.1
16.3	-10826.1
16.4	-10974.2
16.5	-11122.3
16.6	-11270.4
16.7	-11418.5
16.8	-11566.6
16.9	-11714.7
17	-11862.8
17.1	-12010.9
17.2	-12159
17.3	-12307.1
17.4	-12484.8
17.5	-12692
17.6	-12899.3
17.7	-13106.6
17.8	-13313.8
17.9	-13521.1
18	-13728.4
18.1	-13935.7
18.2	-14142.9
18.3	-14350.2
18.4	-14557.5
18.5	-14764.8
18.6	-14972
18.7	-15179.3
18.8	-15386.6
18.9	-15593.9
19	-15801.1
19.1	-16008.4
19.2	-16215.7
19.3	-16423
19.4	-16630.2
19.5	-16837.5
19.6	-17044.8
19.7	-17252
19.8	-17459.3
19.9	-17666.6
20	-17873.9
20.1	-18081.1
20.2	-18288.4
20.3	-18495.7
20.4	-18703
20.5	-18910.2
20.6	-19117.5
20.7	-19324.8
20.8	-19532.1
20.9	-19739.3
21	-19946.6
21.1	-20153.9
21.2	-20361.1
21.3	-20568.4
21.4	-20775.7
21.5	-20983
21.6	-21190.2
21.7	-21397.5
21.8	-21604.8
21.9	-21812.1
22	-22019.3
22.1	-22226.6
22.2	-22433.9
22.3	-22641.2
22.4	-22848.4
22.5	-23055.7
22.6	-23263
22.7	-23470.3
22.8	-23677.5
22.9	-23884.8
23	-24092.1
23.1	-24299.3
23.2	-24506.6
23.3	-24713.9
23.4	-24921.2
23.5	-25128.4
23.6	-25335.7
23.7	-25543
23.8	-25750.3
23.9	-25957.5
24	-26164.8
24.1	-26372.1
24.2	-26579.4
24.3	-26786.6
24.4	-26993.9
24.5	-27201.2
24.6	-27408.5
24.7	-27615.7
24.8	-27823
24.9	-28030.3
25	-28237.5
25.1	-28444.8
25.2	-28652.1
25.3	-28859.4
25.4	-29066.6
25.5	-29273.9
25.6	-29481.2
25.7	-29688.5
25.8	-29895.7
25.9	-30103
26	-30310.3
26.1	-30517.6
26.2	-30724.8
26.3	-30932.1
26.4	-31139.4
26.5	-31346.6
26.6	-31553.9
26.7	-31761.2
26.8	-31968.5
26.9	-32175.7
27	-32383
27.1	-32590.3
27.2	-32797.6
27.3	-33004.8
27.4	-33212.1
27.5	-33419.4
27.6	-33626.7
27.7	-33833.9
27.8	-34041.2
27.9	-34248.5
28	-34455.7
28.1	-34663
28.2	-34870.3
28.3	-35077.6
28.4	-35284.8
28.5	-35492.1
28.6	-35699.4
28.7	-35906.7
28.8	-36113.9
28.9	-36321.2
29	-36528.5
29.1	-36735.8
29.2	-36943
29.3	-37150.3
29.4	-37357.6
29.5	-37564.9
29.6	-37772.1
29.7	-37979.4
29.8	-38186.7
29.9	-38393.9
30	-38601.2
30.1	-38808.5
30.2	-39015.8
30.3	-39223
30.4	-39430.3
30.5	-39637.6
30.6	-39844.9
30.7	-40052.1
30.8	-40259.4
30.9	-40466.7
31	-40674
31.1	-40881.2
31.2	-41088.5
31.3	-41295.8
31.4	-41503.1
31.5	-41710.3
31.6	-41917.6
31.7	-42124.9
31.8	-42332.1
31.9	-42539.4
32	-42746.7
32.1	-42954
32.2	-43161.2
32.3	-43368.5
32.4	-43575.8
32.5	-43783.1
32.6	-43990.3
32.7	-44197.6
32.8	-44404.9
32.9	-44612.2
33	-44819.4
33.1	-45026.7
33.2	-45234
33.3	-45441.3
33.4	-45648.5
33.5	-45855.8
33.6	-46063.1
33.7	-46270.3
33.8	-46477.6
33.9	-46684.9
34	-46892.2
34.1	-47099.4
34.2	-47306.7
34.3	-47514
34.4	-47721.3
34.5	-47928.5
34.6	-48135.8
34.7	-48343.1
34.8	-48550.4
34.9	-48757.6
35	-48964.9
35.1	-49172.2
35.2	-49379.4
35.3	-49586.7
35.4	-49794
35.5	-50001.3
35.6	-50208.5
35.7	-50415.8
35.8	-50623.1
35.9	-50830.4
36	-51037.6
36.1	-51244.9
36.2	-51452.2
36.3	-51659.5
36.4	-51866.7
36.5	-52074
36.6	-52281.3
36.7	-52488.5
36.8	-52695.8
36.9	-52903.1
37	-53110.4
37.1	-53317.6
37.2	-53524.9
37.3	-53732.2
37.4	-53939.5
37.5	-54146.7
37.6	-54354
37.7	-54561.3
37.8	-54768.6
37.9	-54975.8
38	-55183.1
38.1	-55390.4
38.2	-55597.6
38.3	-55804.9
38.4	-56012.2
38.5	-56219.5
38.6	-56426.7
38.7	-56634
38.8	-56841.3
38.9	-57048.6
39	-57255.8
39.1	-57463.1
39.2	-57670.4
39.3	-57877.7
39.4	-58084.9
39.5	-58292.2
39.6	-58499.5
39.7	-58706.8
39.8	-58914
39.9	-59121.3
40	-59328.6
40.1	-59535.9
40.2	-59743.1
40.3	-59950.4
40.4	-60157.7
40.5	-60364.9
40.6	-60572.2
40.7	-60779.5
40.8	-60986.8
40.9	-61194
41	-61401.3
41.1	-61608.6
41.2	-61815.9
41.3	-62023.1
41.4	-62230.4
41.5	-62437.7
41.6	-62645
41.7	-62852.2
41.8	-63059.5
41.9	-63266.8
42	-63474.1
42.1	-63681.3
42.2	-63888.6
42.3	-64095.9
42.4	-64303.1
42.5	-64510.4
42.6	-64717.7
42.7	-64925
42.8	-65132.2
42.9	-65339.5
43	-65546.8
43.1	-65754.1
43.2	-65961.3
43.3	-66168.6
43.4	-66375.9
43.5	-66583.2
43.6	-66790.4
43.7	-66997.7
43.8	-67205
43.9	-67412.2
44	-67619.5
44.1	-67826.8
44.2	-68034.1
44.3	-68241.3
44.4	-68448.6
44.5	-68655.9
44.6	-68863.2
44.7	-69070.4
44.8	-69277.7
44.9	-69485
45	-69692.2
45.1	-69899.5
45.2	-70106.8
45.3	-70314.1
45.4	-70521.3
45.5	-70728.6
45.6	-70935.9
45.7	-71143.2
45.8	-71350.4
45.9	-71557.7
46	-71765
46.1	-71972.3
46.2	-72179.5
46.3	-72386.8
46.4	-72594.1
46.5	-72801.4
46.6	-73008.6
46.7	-73215.9
46.8	-73423.2
46.9	-73630.5
47	-73837.7
47.1	-74045
47.2	-74252.3
47.3	-74459.5
47.4	-74632.1
47.5	-74769.9
47.6	-74907.8
47.7	-75045.6
47.8	-75183.4
47.9	-75321.3
48	-75459.1
48.1	-75596.9
48.2	-75734.7
48.3	-75872.6
48.4	-76010.4
48.5	-76148.2
48.6	-76286.1
48.7	-76423.9
48.8	-76561.7
48.9	-76699.6
49	-76837.4
49.1	-76975.2
49.2	-77113.1
49.3	-77250.9
49.4	-77388.7
49.5	-77526.6
49.6	-77664.4
49.7	-77802.2
49.8	-77940.1
49.9	-78077.9
50	-78215.7
50.1	-78353.5
50.2	-78491.4
50.3	-78629.2
50.4	-78767
50.5	-78904.9
50.6	-79042.7
50.7	-79180.5
50.8	-79318.4
50.9	-79456.2
51	-79594
51.1	-79731.9
51.2	-79869.7
51.3	-80007.5
51.4	-80145.3
51.5	-80283.2
51.6	-80421
51.7	-80558.8
51.8	-80696.7
51.9	-80834.5
52	-80972.3
52.1	-81110.2
52.2	-81248
52.3	-81385.8
52.4	-81523.7
52.5	-81661.5
52.6	-81799.3
52.7	-81937.2
52.8	-82075
52.9	-82212.8
53	-82350.7
53.1	-82488.5
53.2	-82626.3
53.3	-82764.1
53.4	-82902
53.5	-83039.8
53.6	-83177.6
53.7	-83315.5
53.8	-83453.3
53.9	-83591.1
54	-83729
54.1	-83866.8
54.2	-84004.6
54.3	-84142.5
54.4	-84280.3
54.5	-84418.1
54.6	-84556
54.7	-84693.8
54.8	-84831.6
54.9	-84969.4
55	-85107.3
55.1	-85245.1
55.2	-85382.9
55.3	-85520.8
55.4	-85658.6
55.5	-85796.4
55.6	-85934.3
55.7	-86072.1
55.8	-86209.9
55.9	-86347.8
56	-86485.6
56.1	-86623.4
56.2	-86761.3
56.3	-86899.1
56.4	-87036.9
56.5	-87174.8
56.6	-87312.6
56.7	-87450.4
56.8	-87588.2
56.9	-87726.1
57	-87863.9
57.1	-88001.7
57.2	-88139.6
57.3	-88277.4
57.4	-88415.2
57.5	-88553.1
57.6	-88690.9
57.7	-88828.7
57.8	-88966.6
57.9	-89104.4
58	-89242.2
58.1	-89380.1
58.2	-89517.9
58.3	-89655.7
58.4	-89793.5
58.5	-89931.4
58.6	-90069.2
58.7	-90207
58.8	-90344.9
58.9	-90482.7
59	-90620.5
59.1	-90758.4
59.2	-90896.2
59.3	-91034
59.4	-91171.9
59.5	-91309.7
59.6	-91447.5
59.7	-91585.4
59.8	-91723.2
59.9	-91861
60	-91998.9
60.1	-92136.7
60.2	-92274.5
60.3	-92412.3
60.4	-92550.2
60.5	-92688
60.6	-92825.8
60.7	-92963.7
60.8	-93101.5
60.9	-93239.3
61	-93377.2
61.1	-93515
61.2	-93652.8
61.3	-93790.7
61.4	-93928.5
61.5	-94066.3
61.6	-94204.1
61.7	-94342
61.8	-94479.8
61.9	-94617.6
62	-94755.5
62.1	-94893.3
62.2	-95031.1
62.3	-95169
62.4	-95306.8
62.5	-95444.6
62.6	-95582.5
62.7	-95720.3
62.8	-95858.1
62.9	-95996
63	-96133.8
63.1	-96271.6
63.2	-96409.5
63.3	-96547.3
63.4	-96685.1
63.5	-96822.9
63.6	-96960.8
63.7	-97098.6
63.8	-97236.4
63.9	-97374.3
64	-97512.1
64.1	-97649.9
64.2	-97787.8
64.3	-97925.6
64.4	-98063.4
64.5	-98201.3
64.6	-98339.1
64.7	-98476.9
64.8	-98614.8
64.9	-98752.6
65	-98890.4
65.1	-99028.2
65.2	-99166.1
65.3	-99303.9
65.4	-99441.7
65.5	-99579.6
65.6	-99717.4
65.7	-99855.2
65.8	-99993.1
65.9	-100131
66	-100269
66.1	-100407
66.2	-100544
66.3	-100682
66.4	-100820
66.5	-100958
66.6	-101096
66.7	-101234
66.8	-101371
66.9	-101509
67	-101647
67.1	-101785
67.2	-101923
67.3	-102061
67.4	-102198
67.5	-102336
67.6	-102474
67.7	-102612
67.8	-102750
67.9	-102888
68	-103025
68.1	-103163
68.2	-103301
68.3	-103439
68.4	-103577
68.5	-103715
68.6	-103852
68.7	-103990
68.8	-104128
68.9	-104266
69	-104404
69.1	-104541
69.2	-104679
69.3	-104817
69.4	-104955
69.5	-105093
69.6	-105231
69.7	-105368
69.8	-105506
69.9	-105644
70	-105782
70.1	-105920
70.2	-106058
70.3	-106195
70.4	-106333
70.5	-106471
70.6	-106609
70.7	-106747
70.8	-106885
70.9	-107022
71	-107160
71.1	-107298
71.2	-107436
71.3	-107574
71.4	-107712
71.5	-107849
71.6	-107987
71.7	-108125
71.8	-108263
71.9	-108401
72	-108539
72.1	-108676
72.2	-108814
72.3	-108952
72.4	-109090
72.5	-109228
72.6	-109366
72.7	-109503
72.8	-109641
72.9	-109779
73	-109917
73.1	-110055
73.2	-110193
73.3	-110330
73.4	-110468
73.5	-110606
73.6	-110744
73.7	-110882
73.8	-111020
73.9	-111157
74	-111295
74.1	-111433
74.2	-111571
74.3	-111709
74.4	-111847
74.5	-111984
74.6	-112122
74.7	-112260
74.8	-112398
74.9	-112536
75	-112674
75.1	-112811
75.2	-112949
75.3	-113087
75.4	-113225
75.5	-113363
75.6	-113501
75.7	-113638
75.8	-113776
75.9	-113914
76	-114052
76.1	-114190
76.2	-114328
76.3	-114465
76.4	-114603
76.5	-114741
76.6	-114879
76.7	-115017
76.8	-115155
76.9	-115292
77	-115430
77.1	-115568
77.2	-115706
77.3	-115844
77.4	-115981
77.5	-116119
77.6	-116257
77.7	-116395
77.8	-116533
77.9	-116671
78	-116808
78.1	-116946
78.2	-117084
78.3	-117222
78.4	-117360
78.5	-117498
78.6	-117635
78.7	-117773
78.8	-117911
78.9	-118049
79	-118187
79.1	-118325
79.2	-118462
79.3	-118600
79.4	-118738
79.5	-118876
79.6	-119014
79.7	-119152
79.8	-119289
79.9	-119427
80	-119565
80.1	-119703
80.2	-119841
80.3	-119979
80.4	-120116
80.5	-120254
80.6	-120392
80.7	-120530
80.8	-120668
80.9	103858
81	103720
81.1	103582
81.2	103444
81.3	103306
81.4	103169
81.5	103031
81.6	102893
81.7	102755
81.8	102617
81.9	102479
82	102342
82.1	102204
82.2	102066
82.3	101928
82.4	101790
82.5	101652
82.6	101515
82.7	101377
82.8	101239
82.9	101101
83	100963
83.1	100825
83.2	100688
83.3	100550
83.4	100412
83.5	100274
83.6	100136
83.7	99998.5
83.8	99860.6
83.9	99722.8
84	99585
84.1	99447.1
84.2	99309.3
84.3	99171.5
84.4	99033.6
84.5	98895.8
84.6	98758
84.7	98620.1
84.8	98482.3
84.9	98344.5
85	98206.7
85.1	98068.8
85.2	97931
85.3	97793.2
85.4	97655.3
85.5	97517.5
85.6	97379.7
85.7	97241.8
85.8	97104
85.9	96966.2
86	96828.3
86.1	96690.5
86.2	96552.7
86.3	96414.8
86.4	96277
86.5	96139.2
86.6	96001.4
86.7	95863.5
86.8	95725.7
86.9	95587.9
87	95450
87.1	95312.2
87.2	95174.4
87.3	95036.5
87.4	94898.7
87.5	94760.9
87.6	94623
87.7	94485.2
87.8	94347.4
87.9	94209.5
88	94071.7
88.1	93933.9
88.2	93796
88.3	93658.2
88.4	93520.4
88.5	93382.6
88.6	93244.7
88.7	93106.9
88.8	92969.1
88.9	92831.2
89	92693.4
89.1	92555.6
89.2	92417.7
89.3	92279.9
89.4	92142.1
89.5	92004.2
89.6	91866.4
89.7	91728.6
89.8	91590.8
89.9	91452.9
90	91315.1
90.1	91177.3
90.2	91039.4
90.3	90901.6
90.4	90763.8
90.5	90625.9
90.6	90488.1
90.7	90350.3
90.8	90212.4
90.9	90074.6
91	89936.8
91.1	89798.9
91.2	89661.1
91.3	89523.3
91.4	89385.5
91.5	89247.6
91.6	89109.8
91.7	88972
91.8	88834.1
91.9	88696.3
92	88558.5
92.1	88420.6
92.2	88282.8
92.3	88145
92.4	88007.1
92.5	87869.3
92.6	87731.5
92.7	87593.6
92.8	87455.8
92.9	87318
93	87180.2
93.1	87042.3
93.2	86904.5
93.3	86766.7
93.4	86628.8
93.5	86491
93.6	86353.2
93.7	86215.3
93.8	86077.5
93.9	85939.7
94	85801.8
94.1	85664
94.2	85526.2
94.3	85388.3
94.4	85250.5
94.5	85112.7
94.6	84974.8
94.7	84837
94.8	84699.2
94.9	84561.4
95	84423.5
95.1	84285.7
95.2	84147.9
95.3	84010
95.4	83872.2
95.5	83734.4
95.6	83596.5
95.7	83458.7
95.8	83320.9
95.9	83183
96	83045.2
96.1	82907.4
96.2	82769.6
96.3	82631.7
96.4	82493.9
96.5	82356.1
96.6	82218.2
96.7	82080.4
96.8	81942.6
96.9	81804.7
97	81666.9
97.1	81529.1
97.2	81391.2
97.3	81253.4
97.4	81115.6
97.5	80977.7
97.6	80839.9
97.7	80702.1
97.8	80564.2
97.9	80426.4
98	80288.6
98.1	80150.8
98.2	80012.9
98.3	79875.1
98.4	79737.3
98.5	79599.4
98.6	79461.6
98.7	79323.8
98.8	79185.9
98.9	79048.1
99	78910.3
99.1	78772.4
99.2	78634.6
99.3	78496.8
99.4	78359
99.5	78221.1
99.6	78083.3
99.7	77945.5
99.8	77807.6
99.9	77669.8
100	77532
100.1	77394.1
100.2	77256.3
100.3	77118.5
100.4	76980.6
100.5	76842.8
100.6	76705
100.7	76567.1
100.8	76429.3
100.9	76291.5
101	76153.7
101.1	76015.8
101.2	75878
101.3	75740.2
101.4	75602.3
101.5	75464.5
101.6	75326.7
101.7	75188.8
101.8	75051
101.9	74913.2
102	74775.3
102.1	74637.5
102.2	74499.7
102.3	74361.8
102.4	74224
102.5	74086.2
102.6	73948.3
102.7	73810.5
102.8	73672.7
102.9	73534.8
103	73397
103.1	73259.2
103.2	73121.4
103.3	72983.5
103.4	72845.7
103.5	72707.9
103.6	72570
103.7	72432.2
103.8	72294.4
103.9	72156.5
104	72018.7
104.1	71880.9
104.2	71743
104.3	71605.2
104.4	71467.4
104.5	71329.6
104.6	71191.7
104.7	71053.9
104.8	70916.1
104.9	70778.2
105	70640.4
105.1	70502.6
105.2	70364.7
105.3	70226.9
105.4	70089.1
105.5	69951.3
105.6	69813.4
105.7	69675.6
105.8	69537.8
105.9	69399.9
106	69262.1
106.1	69124.3
106.2	68986.4
106.3	68848.6
106.4	68710.8
106.5	68572.9
106.6	68435.1
106.7	68297.3
106.8	68159.4
106.9	68021.6
107	67883.8
107.1	67746
107.2	67608.1
107.3	67470.3
107.4	67332.5
107.5	67194.6
107.6	67056.8
107.7	66919
107.8	66781.1
107.9	66643.3
108	66505.5
108.1	66367.7
108.2	66229.8
108.3	66092
108.4	65954.2
108.5	65816.3
108.6	65678.5
108.7	65540.7
108.8	65402.8
108.9	65265
109	65127.2
109.1	64989.3
109.2	64851.5
109.3	64713.7
109.4	64575.8
109.5	64438
109.6	64300.2
109.7	64162.4
109.8	64024.5
109.9	63886.7
110	63748.8
110.1	63611
110.2	63473.2
110.3	63335.4
110.4	63197.5
110.5	63059.7
110.6	62921.9
110.7	62784
110.8	62646.2
110.9	62508.4
111	62370.5
111.1	62232.7
111.2	62094.9
111.3	61957
111.4	61819.2
111.5	61681.4
111.6	61543.6
111.7	61405.7
111.8	61267.9
111.9	61130.1
112	60992.2
112.1	60854.4
112.2	60716.6
112.3	60578.7
112.4	60440.9
112.5	60303.1
112.6	60165.2
112.7	60027.4
112.8	59889.6
112.9	59751.8
113	59613.9
113.1	59476.1
113.2	59338.3
113.3	59200.4
113.4	59062.6
113.5	58924.8
113.6	58787
113.7	58649.1
113.8	58511.3
113.9	58373.4
114	58235.6
114.1	58097.8
114.2	57960
114.3	57822.1
114.4	57684.3
114.5	57546.5
114.6	57408.6
114.7	57270.8
114.8	57133
114.9	56995.1
115	56857.3
115.1	56719.5
115.2	56581.7
115.3	56443.8
115.4	56306
115.5	56168.1
115.6	56030.3
115.7	55892.5
115.8	55754.7
115.9	55616.8
116	55479
116.1	55341.2
116.2	55203.3
116.3	55065.5
116.4	54927.7
116.5	54789.8
116.6	54652
116.7	54514.2
116.8	54376.4
116.9	54238.5
117	54100.7
117.1	53962.9
117.2	53825
117.3	53687.2
117.4	53549.4
117.5	53411.5
117.6	53273.7
117.7	53135.9
117.8	52998.1
117.9	52860.2
118	52722.4
118.1	52584.6
118.2	52446.7
118.3	52308.9
118.4	52171.1
118.5	52033.3
118.6	51895.4
118.7	51757.6
118.8	51619.8
118.9	51481.9
119	51344.1
119.1	51206.3
119.2	51068.4
119.3	50930.6
119.4	50792.7
119.5	50654.9
119.6	50517.1
119.7	50379.2
119.8	50241.4
119.9	50103.6
120	49965.7
120.1	49827.9
120.2	49690.1
120.3	49552.3
120.4	49414.4
120.5	49276.6
120.6	49138.8
120.7	49000.9
120.8	48863.1
120.9	48725.3
121	48587.4
121.1	48449.6
121.2	48311.8
121.3	48174
121.4	48036.1
121.5	47898.3
121.6	47760.5
121.7	47622.6
121.8	47484.8
121.9	47347
122	47209.1
122.1	47071.3
122.2	46933.5
122.3	46795.7
122.4	46657.8
122.5	46520
122.6	46382.2
122.7	46244.3
122.8	46106.5
122.9	45968.7
123	45830.8
123.1	45693
123.2	45555.2
123.3	45417.4
123.4	45279.5
123.5	45141.7
123.6	45003.9
123.7	44866
123.8	44728.2
123.9	44590.4
124	44452.5
124.1	44314.7
124.2	44176.9
124.3	44039
124.4	43901.2
124.5	43763.3
124.6	43625.5
124.7	43487.7
124.8	43349.9
124.9	43212
125	43074.2
125.1	42936.4
125.2	42798.5
125.3	42660.7
125.4	42522.9
125.5	42385.1
125.6	42247.2
125.7	42109.4
125.8	41971.6
125.9	41833.8
126	41695.9
126.1	41558.1
126.2	41420.3
126.3	41282.4
126.4	41144.6
126.5	41006.8
126.6	40868.9
126.7	40731.1
126.8	40593.3
126.9	40455.5
127	40317.6
127.1	40179.8
127.2	40042
127.3	39904.2
127.4	39766.3
127.5	39628.5
127.6	39490.7
127.7	39352.8
127.8	39215
127.9	39077.1
128	38939.3
128.1	38801.5
128.2	38663.6
128.3	38525.8
128.4	38387.9
128.5	38250.1
128.6	38112.3
128.7	37974.5
128.8	37836.6
128.9	37698.8
129	37560.9
129.1	37423.1
129.2	37285.3
129.3	37147.5
129.4	37009.6
129.5	36871.8
129.6	36734
129.7	36596.2
129.8	36458.3
129.9	36320.5
130	36182.6
130.1	36044.8
130.2	35907
130.3	35769.2
130.4	35631.3
130.5	35493.5
130.6	35355.6
130.7	35217.8
130.8	35079.9
130.9	34942.1
131	34804.3
131.1	34666.5
131.2	34528.6
131.3	34390.8
131.4	34253
131.5	34115.2
131.6	33977.3
131.7	33839.5
131.8	33701.6
131.9	33563.8
132	33426
132.1	33288.2
132.2	33150.3
132.3	33012.5
132.4	32874.7
132.5	32736.9
132.6	32599
132.7	32461.2
132.8	32323.3
132.9	32185.5
133	32047.7
133.1	31909.9
133.2	31772
133.3	31634.2
133.4	31496.4
133.5	31358.6
133.6	31220.7
133.7	31082.9
133.8	30945.1
133.9	30807.2
134	30669.4
134.1	30531.5
134.2	30393.7
134.3	30255.9
134.4	30118
134.5	29980.2
134.6	29842.4
134.7	29704.5
134.8	29566.7
134.9	29428.9
135	29291.1
135.1	29153.2
135.2	29015.4
135.3	28877.6
135.4	28739.7
135.5	28601.9
135.6	28464.1
135.7	28326.2
135.8	28188.4
135.9	28050.6
136	27912.7
136.1	27774.9
136.2	27637.1
136.3	27499.2
136.4	27361.4
136.5	27223.6
136.6	27085.7
136.7	26947.9
136.8	26810.1
136.9	26672.2
137	26534.4
137.1	26396.6
137.2	26258.7
137.3	26120.9
137.4	25983.1
137.5	25845.2
137.6	25707.4
137.7	25569.6
137.8	25431.7
137.9	25293.9
138	25156.1
138.1	25018.3
138.2	24880.4
138.3	24742.6
138.4	24604.8
138.5	24467
138.6	24329.1
138.7	24191.3
138.8	24053.5
138.9	23915.6
139	23777.8
139.1	23640
139.2	23502.1
139.3	23364.3
139.4	23226.5
139.5	23088.7
139.6	22950.8
139.7	22813
139.8	22675.2
139.9	22537.3
140	22399.5
140.1	22261.7
140.2	22123.8
140.3	21986
140.4	21848.2
140.5	21710.3
140.6	21572.5
140.7	21434.7
140.8	21296.9
140.9	21159
141	21021.2
141.1	20883.4
141.2	20745.5
141.3	20607.7
141.4	20469.9
141.5	20332
141.6	20194.2
141.7	20056.4
141.8	19918.5
141.9	19780.7
142	19642.9
142.1	19505
142.2	19367.2
142.3	19229.4
142.4	19091.6
142.5	18953.8
142.6	18815.9
142.7	18678.1
142.8	18540.3
142.9	18402.4
143	18264.6
143.1	18126.8
143.2	17989
143.3	17851.1
143.4	17713.3
143.5	17575.5
143.6	17437.6
143.7	17299.8
143.8	17162
143.9	17024.1
144	16886.3
144.1	16748.5
144.2	16610.6
144.3	16472.8
144.4	16335
144.5	16197.1
144.6	16059.3
144.7	15921.5
144.8	15783.7
144.9	15645.8
145	15508
145.1	15370.2
145.2	15232.3
145.3	15094.5
145.4	14956.7
145.5	14818.9
145.6	14681
145.7	14543.2
145.8	14405.3
145.9	14267.5
146	14129.7
146.1	13991.8
146.2	13854
146.3	13716.2
146.4	13578.4
146.5	13440.6
146.6	13302.7
146.7	13164.9
146.8	13027.1
146.9	12893.4
147	12763.8
147.1	12634.2
147.2	12504.6
147.3	12375.1
147.4	12245.4
147.5	12115.9
147.6	11986.3
147.7	11856.7
147.8	11727.1
147.9	11597.5
148	11467.9
148.1	11338.3
148.2	11208.7
148.3	11079.2
148.4	10949.6
148.5	10820.1
148.6	10690.4
148.7	10560.9
148.8	10431.3
148.9	10301.7
149	10172.2
149.1	10042.6
149.2	9913.02
149.3	9783.42
149.4	9653.82
149.5	9524.29
149.6	9394.7
149.7	9265.1
149.8	9135.52
149.9	9005.93
150	8876.41
150.1	8746.83
150.2	8617.2
150.3	8487.63
150.4	8358.01
150.5	8228.42
150.6	8098.87
150.7	7969.31
150.8	7839.69
